# dimensionless total lensed [l(l+1)/2pi] C_l's
# for l=2 to 6000, i.e. number of multipoles equal to 5999
#
# -> if you prefer output in CAMB/HealPix/LensPix units/order, set 'format' to 'camb' in input file
# -> if you don't want to see such a header, set 'headers' to 'no' in input file
# -> for CMB lensing (phi), these are C_l^phi-phi for the lensing potential.
#    Remember the conversion factors:
#    C_l^dd (deflection) = l(l+1) C_l^phi-phi
#    C_l^gg (shear/convergence) = 1/4 (l(l+1))^2 C_l^phi-phi
#
# 1:l     2:TT                     3:EE                     4:TE                     5:BB                     6:phiphi                 7:TPhi                   8:Ephi               
    2       1.375044941201e-10       4.613283272343e-15       3.702643319290e-13       2.426767689054e-19       8.124108829807e-09       4.465326101042e-10      -1.944619860191e-12 
    3       1.301359279751e-10       6.278930097334e-15       4.257166249689e-13       4.854791758216e-19       5.042794784158e-09       3.172164343779e-10      -1.524273261107e-12 
    4       1.230922230689e-10       5.791298231514e-15       4.060484330682e-13       8.094074243574e-19       3.510511089191e-09       2.403575395892e-10      -1.047459110751e-12 
    5       1.177571953548e-10       4.132638041114e-15       3.521520303028e-13       1.214618790057e-18       2.619567937083e-09       1.899137803071e-10      -6.289395802566e-13 
    6       1.140512293765e-10       2.443141941633e-15       2.881253885680e-13       1.701301389349e-18       2.044160583184e-09       1.545404550536e-10      -3.038485909782e-13 
    7       1.116321007476e-10       1.325980899797e-15       2.285268126517e-13       2.269669020715e-18       1.647798858802e-09       1.286173368197e-10      -8.007497934229e-14 
    8       1.101891241620e-10       8.015760837991e-16       1.803977806018e-13       2.919955440538e-18       1.361780864414e-09       1.089813421484e-10       5.066842690001e-14 
    9       1.094794747244e-10       6.167187161550e-16       1.461449743057e-13       3.652408295385e-18       1.147206458000e-09       9.370031728176e-11       1.060137591408e-13 
   10       1.093023171716e-10       5.368583852834e-16       1.252710098014e-13       4.467282944172e-18       9.810192259865e-10       8.155695996393e-11       1.080336863035e-13 
   11       1.095576123743e-10       4.619446059045e-16       1.155507532266e-13       5.364836405694e-18       8.247255980499e-10       7.202150196223e-11       7.926652098478e-14 
   12       1.101495583671e-10       3.933367723405e-16       1.140631456506e-13       6.345321659335e-18       7.204819276655e-10       6.379169570692e-11       3.874487269271e-14 
   13       1.109900779948e-10       3.563238641475e-16       1.178998134402e-13       7.408982509607e-18       6.349310340089e-10       5.705145992573e-11       8.424585825371e-16 
   14       1.120005118189e-10       3.557843790828e-16       1.246513812231e-13       8.556049199451e-18       5.637675054131e-10       5.116067311705e-11      -2.652045944320e-14 
   15       1.131960716741e-10       3.777921450603e-16       1.326763152541e-13       9.786734923733e-18       5.038809248838e-10       4.620679349891e-11      -4.005578091561e-14 
   16       1.145502621867e-10       4.094775854920e-16       1.409697548616e-13       1.110123335483e-17       4.529734501451e-10       4.197981668102e-11      -4.106640745475e-14 
   17       1.159968745104e-10       4.502332533828e-16       1.490251777091e-13       1.249971724793e-17       4.093126463208e-10       3.831296673471e-11      -3.338027911369e-14 
   18       1.175336126297e-10       5.084652621362e-16       1.569091669601e-13       1.398233762064e-17       3.714229655127e-10       3.505191753476e-11      -2.196866094617e-14 
   19       1.191719000460e-10       5.890219101360e-16       1.648910738196e-13       1.554922716427e-17       3.387035523611e-10       3.217943148845e-11      -1.052379295736e-14 
   20       1.208676533121e-10       6.940496009857e-16       1.732676242152e-13       1.720049627565e-17       3.098896648532e-10       2.965556357269e-11      -2.532600919930e-15 
   21       1.226330841327e-10       8.216437726894e-16       1.821544762474e-13       1.893624341036e-17       2.845277459984e-10       2.743950208950e-11       9.845490655887e-16 
   22       1.244658820666e-10       9.681772661912e-16       1.915453220712e-13       2.075655040645e-17       2.620107173554e-10       2.545232788506e-11       1.970806950039e-16 
   23       1.263568344769e-10       1.133821253485e-15       2.012377715457e-13       2.266149474434e-17       2.420283552083e-10       2.366077769718e-11      -3.694551266353e-15 
   24       1.282775933592e-10       1.319627864241e-15       2.109027724546e-13       2.465114483305e-17       2.241178451412e-10       2.202860626931e-11      -8.838973551922e-15 
   25       1.302472873675e-10       1.525341255909e-15       2.202091822632e-13       2.672557414089e-17       2.080681266120e-10       2.056063212681e-11      -1.365644558181e-14 
   26       1.322805061322e-10       1.750299243831e-15       2.287955810774e-13       2.888485560551e-17       1.935883877446e-10       1.925568496880e-11      -1.665937538998e-14 
   27       1.343593335757e-10       1.995172995299e-15       2.363946438472e-13       3.112907375725e-17       1.805046706186e-10       1.808102025654e-11      -1.747101053871e-14 
   28       1.364488147545e-10       2.261198843673e-15       2.427918054133e-13       3.345832086053e-17       1.685911159788e-10       1.698851251811e-11      -1.621214922934e-14 
   29       1.385585236448e-10       2.550174116645e-15       2.479706328074e-13       3.587271020440e-17       1.577867079362e-10       1.597628154607e-11      -1.351437211792e-14 
   30       1.407024538912e-10       2.864272846399e-15       2.520084865769e-13       3.837236797632e-17       1.479752168073e-10       1.504982501358e-11      -1.037169582784e-14 
   31       1.428842141544e-10       3.205673822826e-15       2.550117817607e-13       4.095743236951e-17       1.389562435469e-10       1.420654242558e-11      -7.854921682892e-15 
   32       1.451056191851e-10       3.575496090462e-15       2.570359255620e-13       4.362806078328e-17       1.306831403484e-10       1.343933825460e-11      -6.295660449862e-15 
   33       1.473586075438e-10       3.974455982616e-15       2.581390443777e-13       4.638442793207e-17       1.230973658642e-10       1.273265507571e-11      -5.802605926532e-15 
   34       1.496290813954e-10       4.403179777958e-15       2.583658550757e-13       4.922672247778e-17       1.160927023964e-10       1.206719955399e-11      -6.384567796020e-15 
   35       1.519232990507e-10       4.862378156877e-15       2.576143323720e-13       5.215513625043e-17       1.096332562904e-10       1.144301135801e-11      -7.653440949311e-15 
   36       1.542490973693e-10       5.352718138823e-15       2.557202559817e-13       5.516987352594e-17       1.036671509180e-10       1.086365040706e-11      -9.003002612519e-15 
   37       1.566091417763e-10       5.874830910392e-15       2.525131137612e-13       5.827114426589e-17       9.811667134689e-11       1.032990989673e-11      -9.829011712213e-15 
   38       1.590042160746e-10       6.429521498871e-15       2.478950220293e-13       6.145912687866e-17       9.296745481953e-11       9.840158852378e-12      -1.005220281915e-14 
   39       1.614298281614e-10       7.017621725573e-15       2.417863111336e-13       6.473399425245e-17       8.820314676017e-11       9.389595307264e-12      -9.764615266143e-15 
   40       1.638744686386e-10       7.639931371582e-15       2.341040830233e-13       6.809592414181e-17       8.377827121132e-11       8.969768869433e-12      -9.092710438866e-15 
   41       1.663250162243e-10       8.297174831582e-15       2.247846890745e-13       7.154508298818e-17       7.963407208025e-11       8.571260136506e-12      -8.190463222154e-15 
   42       1.687866859533e-10       8.989859242044e-15       2.138605237312e-13       7.508157028260e-17       7.575834537046e-11       8.193491807901e-12      -7.210009844909e-15 
   43       1.712684435538e-10       9.718366571890e-15       2.014078378792e-13       7.870545662616e-17       7.214080885570e-11       7.837604614639e-12      -6.325591099147e-15 
   44       1.737772387737e-10       1.048298596584e-14       1.875274900902e-13       8.241679786275e-17       6.875514850282e-11       7.503658010273e-12      -5.743885445088e-15 
   45       1.763176524675e-10       1.128399445400e-14       1.723094356387e-13       8.621562275770e-17       6.556841838619e-11       7.190882970315e-12      -5.643758262938e-15 
   46       1.788913126373e-10       1.212193955217e-14       1.557104170726e-13       9.010189358931e-17       6.257559916849e-11       6.898757193316e-12      -5.969784029128e-15 
   47       1.814968702703e-10       1.299743270362e-14       1.376419576637e-13       9.407553236944e-17       5.977320020263e-11       6.626087715163e-12      -6.580060262560e-15 
   48       1.841298284744e-10       1.391107091074e-14       1.180032424721e-13       9.813642986528e-17       5.714883598173e-11       6.370615704566e-12      -7.301175075055e-15 
   49       1.867822819640e-10       1.486343670487e-14       9.668031962110e-14       1.022844441106e-16       5.468056469089e-11       6.128940369288e-12      -7.926435257702e-15 
   50       1.894461374931e-10       1.585501334436e-14       7.356958865879e-14       1.065194050722e-16       5.234349608493e-11       5.897495603473e-12      -8.270400680774e-15 
   51       1.921244100895e-10       1.688590334180e-14       4.865763496321e-14       1.108411335966e-16       5.013326420265e-11       5.675968994344e-12      -8.354049341110e-15 
   52       1.948225427403e-10       1.795603348211e-14       2.196168483803e-14       1.152494250324e-16       4.804778270161e-11       5.464679333473e-12      -8.266810412364e-15 
   53       1.975450990233e-10       1.906522899266e-14      -6.492451557741e-15       1.197440423549e-16       4.608022061141e-11       5.263579064909e-12      -8.115507746302e-15 
   54       2.002956664020e-10       2.021320952392e-14      -3.667003601360e-14       1.243247149664e-16       4.421868297142e-11       5.072227732165e-12      -8.025237668027e-15 
   55       2.030768144402e-10       2.139968232257e-14      -6.854037486551e-14       1.289911697357e-16       4.244984019336e-11       4.890006697878e-12      -8.108469124987e-15 
   56       2.058901788357e-10       2.262465806403e-14      -1.021202991590e-13       1.337432358930e-16       4.077160359424e-11       4.716886597257e-12      -8.361344137374e-15 
   57       2.087362288756e-10       2.388820643923e-14      -1.374408830052e-13       1.385807640927e-16       3.918303934966e-11       4.552804026855e-12      -8.743153680647e-15 
   58       2.116141218370e-10       2.519036560859e-14      -1.745352439790e-13       1.435035965142e-16       3.768053374053e-11       4.397420196199e-12      -9.205505839823e-15 
   59       2.145216084219e-10       2.653114196934e-14      -2.134387177589e-13       1.485115669185e-16       3.625762763711e-11       4.250103775011e-12      -9.691965514587e-15 
   60       2.174549381912e-10       2.791050992282e-14      -2.541890327670e-13       1.536045007054e-16       3.490485098308e-11       4.109913740424e-12      -1.013769412440e-14 
   61       2.204103635631e-10       2.932832002868e-14      -2.968153758320e-13       1.587822526505e-16       3.361235269591e-11       3.975864818105e-12      -1.048371710635e-14 
   62       2.233892602344e-10       3.078399990294e-14      -3.413023260694e-13       1.640448298852e-16       3.237885462371e-11       3.847832234162e-12      -1.072428379643e-14 
   63       2.263939935151e-10       3.227678546484e-14      -3.876180986331e-13       1.693922967475e-16       3.120442283572e-11       3.725820530820e-12      -1.086954701121e-14 
   64       2.294263782075e-10       3.380580354845e-14      -4.357247650191e-13       1.748247407656e-16       3.008777425771e-11       3.609690868646e-12      -1.093197508204e-14 
   65       2.324876347622e-10       3.537006876315e-14      -4.855780752262e-13       1.803422739107e-16       2.902619985251e-11       3.499152840261e-12      -1.092645568901e-14 
   66       2.355783454336e-10       3.696848035419e-14      -5.371272799161e-13       1.859450338494e-16       2.801548780048e-11       3.393756284050e-12      -1.087039969485e-14 
   67       2.386984104356e-10       3.859981906315e-14      -5.903149525742e-13       1.916331851961e-16       2.704984668001e-11       3.292883097867e-12      -1.078384497883e-14 
   68       2.418475390085e-10       4.026286687373e-14      -6.450875744648e-13       1.974069082988e-16       2.612345237917e-11       3.195914036266e-12      -1.068529206207e-14 
   69       2.450269361714e-10       4.195680144239e-14      -7.014301775982e-13       2.032663601563e-16       2.523562452383e-11       3.102786647343e-12      -1.057799903117e-14 
   70       2.482378805565e-10       4.368087631701e-14      -7.593384341147e-13       2.092117077957e-16       2.438656574748e-11       3.013536201816e-12      -1.046108337772e-14 
   71       2.514811901154e-10       4.543430512640e-14      -8.188086102553e-13       2.152431409554e-16       2.357579610555e-11       2.928127067883e-12      -1.033353926649e-14 
   72       2.547571919554e-10       4.721626158365e-14      -8.798376637862e-13       2.213608730189e-16       2.280211778351e-11       2.846449000208e-12      -1.019423220799e-14 
   73       2.580656921752e-10       4.902587948944e-14      -9.424233414219e-13       2.275651419485e-16       2.206357980509e-11       2.768313428919e-12      -1.004189373102e-14 
   74       2.614059457018e-10       5.086225273544e-14      -1.006564276250e-12       2.338562112190e-16       2.135744274038e-11       2.693449748594e-12      -9.875116055246e-15 
   75       2.647766261260e-10       5.272443530765e-14      -1.072260085153e-12       2.402343707515e-16       2.068014341401e-11       2.621501607255e-12      -9.692346763770e-15 
   76       2.681764183123e-10       5.461138531586e-14      -1.139503487245e-12       2.466998890263e-16       2.002817956525e-11       2.552116332652e-12      -9.492959337395e-15 
   77       2.716059876637e-10       5.652178529146e-14      -1.208254784542e-12       2.532528572778e-16       1.940102808610e-11       2.485240241003e-12      -9.280701909508e-15 
   78       2.750663168285e-10       5.845418897394e-14      -1.278462883095e-12       2.598933184524e-16       1.879869729220e-11       2.420870687268e-12      -9.060870651273e-15 
   79       2.785580976732e-10       6.040707325167e-14      -1.350072794024e-12       2.666213134417e-16       1.822083801874e-11       2.358965933164e-12      -8.839306165135e-15 
   80       2.820817138885e-10       6.237883701753e-14      -1.423025567324e-12       2.734368810158e-16       1.766672719300e-11       2.299443346017e-12      -8.622410218806e-15 
   81       2.856372235969e-10       6.436780002441e-14      -1.497258225676e-12       2.803400577549e-16       1.713525140681e-11       2.242177597608e-12      -8.417162479243e-15 
   82       2.892243419584e-10       6.637220174083e-14      -1.572703698252e-12       2.873308779829e-16       1.662489048913e-11       2.186998863016e-12      -8.231137246632e-15 
   83       2.928424237779e-10       6.839020020647e-14      -1.649290754525e-12       2.944093736993e-16       1.613370107851e-11       2.133691019468e-12      -8.072520188369e-15 
   84       2.964908072820e-10       7.041994625807e-14      -1.726949752827e-12       3.015755926860e-16       1.565978906805e-11       2.082045805849e-12      -7.948005729001e-15 
   85       3.001699490306e-10       7.245982285226e-14      -1.805631125980e-12       3.088296564227e-16       1.520285291371e-11       2.032039562714e-12      -7.856052067490e-15 
   86       3.038804461348e-10       7.450824350360e-14      -1.885289853078e-12       3.161717116937e-16       1.476286724438e-11       1.983682625930e-12      -7.792533466664e-15 
   87       3.076226806581e-10       7.656358056226e-14      -1.965879948283e-12       3.236019135022e-16       1.433960864720e-11       1.936965123142e-12      -7.752741571832e-15 
   88       3.113968082931e-10       7.862416533628e-14      -2.047354492355e-12       3.311204253083e-16       1.393264745638e-11       1.891856113133e-12      -7.731366525536e-15 
   89       3.152027470387e-10       8.068828821390e-14      -2.129665664190e-12       3.387274192669e-16       1.354133954207e-11       1.848302725190e-12      -7.722478082311e-15 
   90       3.190401658763e-10       8.275419878585e-14      -2.212764772356e-12       3.464230764660e-16       1.316481809924e-11       1.806229298459e-12      -7.719506723433e-15 
   91       3.229084734472e-10       8.482010596760e-14      -2.296602286625e-12       3.542075871646e-16       1.280198543651e-11       1.765536521316e-12      -7.715224771677e-15 
   92       3.268068067285e-10       8.688417812172e-14      -2.381127869508e-12       3.620811510306e-16       1.245150476501e-11       1.726100570722e-12      -7.701727506071e-15 
   93       3.307343144976e-10       8.894456327100e-14      -2.466288927225e-12       3.700440342523e-16       1.211211747789e-11       1.687804602718e-12      -7.672178877286e-15 
   94       3.346910810840e-10       9.099945294995e-14      -2.552025944815e-12       3.780967501808e-16       1.178366740934e-11       1.650640510964e-12      -7.626390011514e-15 
   95       3.386773212607e-10       9.304702822739e-14      -2.638276504461e-12       3.862399064227e-16       1.146621615940e-11       1.614620952670e-12      -7.566048700988e-15 
   96       3.426930906570e-10       9.508544086398e-14      -2.724976714612e-12       3.944741513927e-16       1.115972763636e-11       1.579747950151e-12      -7.493034826167e-15 
   97       3.467382784817e-10       9.711281371024e-14      -2.812061221192e-12       4.028001753322e-16       1.086406431358e-11       1.546012474263e-12      -7.409425692877e-15 
   98       3.508126002468e-10       9.912724110469e-14      -2.899463218812e-12       4.112187113281e-16       1.057898348630e-11       1.513394027849e-12      -7.317501369445e-15 
   99       3.549155904903e-10       1.011267892719e-13      -2.987114461979e-12       4.197305363317e-16       1.030413352846e-11       1.481860229175e-12      -7.219750023836e-15 
  100       3.590465954995e-10       1.031094967205e-13      -3.074945276313e-12       4.283364721771e-16       1.003905014951e-11       1.451366395374e-12      -7.118873260797e-15 
  101       3.632047660345e-10       1.050733746414e-13      -3.162884569751e-12       4.370373866003e-16       9.783152651252e-12       1.421855125886e-12      -7.017791458988e-15 
  102       3.673890500513e-10       1.070164073058e-13      -3.250859843767e-12       4.458341942575e-16       9.535740184603e-12       1.393255885897e-12      -6.919649108124e-15 
  103       3.715981854250e-10       1.089365524631e-13      -3.338797204576e-12       4.547278577441e-16       9.295988006458e-12       1.365484589781e-12      -6.827820146111e-15 
  104       3.758309676545e-10       1.108317955333e-13      -3.426622737209e-12       4.637193043391e-16       9.063134516995e-12       1.338462865032e-12      -6.745175438401e-15 
  105       3.800871098345e-10       1.127003196618e-13      -3.514266814966e-12       4.728091612351e-16       8.837079208853e-12       1.312179704940e-12      -6.671761025190e-15 
  106       3.843664858281e-10       1.145403594860e-13      -3.601660395717e-12       4.819979862746e-16       8.617858889840e-12       1.286637406478e-12      -6.606814729146e-15 
  107       3.886688614556e-10       1.163501503691e-13      -3.688733736902e-12       4.912863491214e-16       8.405462488613e-12       1.261832435650e-12      -6.549473268275e-15 
