# dimensionless total lensed [l(l+1)/2pi] C_l's
# for l=2 to 2500, i.e. number of multipoles equal to 2499
#
# -> if you prefer output in CAMB/HealPix/LensPix units/order, set 'format' to 'camb' in input file
# -> if you don't want to see such a header, set 'headers' to 'no' in input file
# -> for CMB lensing (phi), these are C_l^phi-phi for the lensing potential.
#    Remember the conversion factors:
#    C_l^dd (deflection) = l(l+1) C_l^phi-phi
#    C_l^gg (shear/convergence) = 1/4 (l(l+1))^2 C_l^phi-phi
#
# 1:l     2:TT                     3:EE                     4:TE                     5:BB                     6:phiphi                 7:TPhi                   8:Ephi               
    2       1.371255036369e-10       4.135057270039e-15       3.571557616424e-13       2.246136873178e-19       8.114031686546e-09       4.464315442436e-10      -1.808939878813e-12 
    3       1.298112678787e-10       5.487889137796e-15       4.081296345666e-13       4.493307200714e-19       5.046323826690e-09       3.171540838653e-10      -1.378038146743e-12 
    4       1.228318081595e-10       5.134945269231e-15       3.917700350738e-13       7.491118371944e-19       3.516617177387e-09       2.401167484179e-10      -9.353702078595e-13 
    5       1.175363419689e-10       3.902547075720e-15       3.449380927402e-13       1.124088359021e-18       2.625419148304e-09       1.896942989017e-10      -5.796786413969e-13 
    6       1.138259054351e-10       2.581197006251e-15       2.890897561854e-13       1.574419039053e-18       2.049671658443e-09       1.544625103126e-10      -3.248076176123e-13 
    7       1.113653797919e-10       1.574580196687e-15       2.369897501291e-13       2.100286729704e-18       1.651712917192e-09       1.286831187601e-10      -1.584860205135e-13 
    8       1.098509311890e-10       9.504950244876e-16       1.945297573508e-13       2.701894631999e-18       1.363444370507e-09       1.091466547867e-10      -5.891250679979e-14 
    9       1.090471848271e-10       6.195889539060e-16       1.634709595048e-13       3.379462250254e-18       1.147297806630e-09       9.390422089892e-11      -4.324233871692e-15 
   10       1.087719413725e-10       4.648276724237e-16       1.432190745345e-13       4.133221180664e-18       9.806546766146e-10       8.174685146777e-11       2.259565429995e-14 
   11       1.089289005434e-10       3.979682528419e-16       1.320137313529e-13       4.963410865855e-18       8.277777413775e-10       7.224692633082e-11       3.362790861678e-14 
   12       1.094314985295e-10       3.689995639701e-16       1.276808132104e-13       5.870274445770e-18       7.231673030792e-10       6.394478062165e-11       3.540069496939e-14 
   13       1.101961300342e-10       3.564488736558e-16       1.281897284052e-13       6.854054828788e-18       6.373105841162e-10       5.713701223556e-11       3.208111953642e-14 
   14       1.111398387149e-10       3.548708041697e-16       1.319951443392e-13       7.914991096046e-18       5.658885500950e-10       5.119638192041e-11       2.533717821628e-14 
   15       1.122786098146e-10       3.657563896914e-16       1.379907616441e-13       9.053315336986e-18       5.057807880474e-10       4.621842907595e-11       1.718734045479e-14 
   16       1.135926953045e-10       3.923713391647e-16       1.453953916166e-13       1.026924999578e-17       4.546838308749e-10       4.199154496450e-11       8.891661876098e-15 
   17       1.150015060010e-10       4.372049345502e-16       1.536876527252e-13       1.156300578719e-17       4.108579221553e-10       3.833953786022e-11       1.492805367002e-15 
   18       1.165078171411e-10       5.013435523144e-16       1.624990478807e-13       1.293477995902e-17       3.728247287547e-10       3.509578422504e-11      -4.354602480363e-15 
   19       1.181245106641e-10       5.849227082174e-16       1.715872808838e-13       1.438475672289e-17       3.399783527306e-10       3.223792078343e-11      -8.395151680487e-15 
   20       1.198050540989e-10       6.871263191085e-16       1.806773538128e-13       1.591310414384e-17       3.110524075888e-10       2.972327178008e-11      -1.063097926204e-14 
   21       1.215607197601e-10       8.078807187643e-16       1.896559224714e-13       1.751997837554e-17       2.855917637672e-10       2.750998807466e-11      -1.134766245584e-14 
   22       1.233887387132e-10       9.471120784999e-16       1.984334547364e-13       1.920552018440e-17       2.629862437363e-10       2.551907975607e-11      -1.105224836707e-14 
   23       1.252795917308e-10       1.105523074624e-15       2.068843709827e-13       2.096986082135e-17       2.429245690613e-10       2.371829040566e-11      -1.015925733217e-14 
   24       1.272045652456e-10       1.284007762172e-15       2.148720743782e-13       2.281311849551e-17       2.249425948317e-10       2.207344612177e-11      -9.094549493335e-15 
   25       1.291817703883e-10       1.483779818289e-15       2.223734675228e-13       2.473540611290e-17       2.088285927640e-10       2.059292571069e-11      -8.053571115352e-15 
   26       1.312245142094e-10       1.706026943227e-15       2.293913427026e-13       2.673682701441e-17       1.942906765831e-10       1.927947474876e-11      -7.157404499614e-15 
   27       1.333137564214e-10       1.951478891189e-15       2.358612234673e-13       2.881748216055e-17       1.811542022455e-10       1.810090833736e-11      -6.434060720038e-15 
   28       1.354135398303e-10       2.220683296233e-15       2.416927284193e-13       3.097746725783e-17       1.691924113513e-10       1.700832601596e-11      -5.882427724207e-15 
   29       1.375329187294e-10       2.514508523913e-15       2.468131460610e-13       3.321688324839e-17       1.583440824447e-10       1.599851839346e-11      -5.530471861521e-15 
   30       1.396856314594e-10       2.833871002849e-15       2.511480500305e-13       3.553582833701e-17       1.484925928191e-10       1.507507836237e-11      -5.413337864856e-15 
   31       1.418753122973e-10       3.179642043911e-15       2.546120010761e-13       3.793439793758e-17       1.394368236305e-10       1.423342498377e-11      -5.547365949959e-15 
   32       1.441044310194e-10       3.552726308539e-15       2.571054428012e-13       4.041269614272e-17       1.311299470286e-10       1.346625121701e-11      -5.871296058951e-15 
   33       1.463660506454e-10       3.954004460338e-15       2.585145931256e-13       4.297082904257e-17       1.235131738147e-10       1.275840250211e-11      -6.279554437728e-15 
   34       1.486472032837e-10       4.384336625730e-15       2.587318316824e-13       4.560890303553e-17       1.164798525528e-10       1.209106689456e-11      -6.656833046201e-15 
   35       1.509538572578e-10       4.844659868662e-15       2.577279642867e-13       4.832702795847e-17       1.099939510129e-10       1.146459520890e-11      -6.953979678059e-15 
   36       1.532930759714e-10       5.335921090249e-15       2.555057923917e-13       5.112531578270e-17       1.040033991193e-10       1.088286150161e-11      -7.137280610559e-15 
   37       1.556667628737e-10       5.859027114199e-15       2.520665483389e-13       5.400387775598e-17       9.843018745637e-11       1.034698494389e-11      -7.182512319651e-15 
   38       1.580753770712e-10       6.414766560883e-15       2.473571297954e-13       5.696281587796e-17       9.325989716592e-11       9.855460890315e-12      -7.124028770791e-15 
   39       1.605142579697e-10       7.003857523807e-15       2.413054100860e-13       6.000222913602e-17       8.847610689049e-11       9.403558267677e-12      -7.022783466451e-15 
   40       1.629717776099e-10       7.626964136731e-15       2.338337684661e-13       6.312221609097e-17       8.403315967049e-11       8.982898393597e-12      -6.954397907574e-15 
   41       1.654347878103e-10       8.284716783907e-15       2.248703510130e-13       6.632286921716e-17       7.987206621969e-11       8.584081261848e-12      -6.987065793910e-15 
   42       1.679086952705e-10       8.977788820422e-15       2.143883740671e-13       6.960425514218e-17       7.598057132470e-11       8.206317234046e-12      -7.104359134911e-15 
   43       1.704028005995e-10       9.706839101635e-15       2.023788368392e-13       7.296642836997e-17       7.234834891980e-11       7.850423444219e-12      -7.258872243573e-15 
   44       1.729245079426e-10       1.047248878113e-14       1.888402394121e-13       7.640943645317e-17       6.894897829810e-11       7.516068379845e-12      -7.392453477783e-15 
   45       1.754788349679e-10       1.127531392417e-14       1.737695142637e-13       7.993331375763e-17       6.574938091361e-11       7.202148906467e-12      -7.451753279142e-15 
   46       1.780673486447e-10       1.211582492452e-14       1.571307805917e-13       8.353806094325e-17       6.274451434674e-11       6.908291677467e-12      -7.441929750885e-15 
   47       1.806884922616e-10       1.299447789524e-14       1.388778314992e-13       8.722365905231e-17       5.993087100133e-11       6.633630284991e-12      -7.387902806982e-15 
   48       1.833375478528e-10       1.391167768018e-14       1.189625398422e-13       9.099007452849e-17       5.729601375371e-11       6.376296335500e-12      -7.319836323925e-15 
   49       1.860063758199e-10       1.486777574509e-14       9.733465881349e-14       9.483725869355e-17       5.481791196127e-11       6.133346812570e-12      -7.273426294140e-15 
   50       1.886866499631e-10       1.586303823194e-14       7.395105042168e-14       9.876514708929e-17       5.247157513223e-11       5.901617848233e-12      -7.280658291027e-15 
   51       1.913812018647e-10       1.689754479259e-14       4.880678668444e-14       1.027736585071e-16       5.025261716928e-11       5.680727762122e-12      -7.338453736961e-15 
   52       1.940953057299e-10       1.797125864911e-14       2.191214580001e-14       1.068626947902e-16       4.815894062366e-11       5.470763605509e-12      -7.432011110006e-15 
   53       1.968333584965e-10       1.908405060067e-14      -6.715839449133e-15       1.110321404288e-16       4.618368510396e-11       5.271397644174e-12      -7.543436252808e-15 
   54       1.995987839458e-10       2.023569551040e-14      -3.705313744648e-14       1.152818620297e-16       4.431490670410e-11       5.081858316902e-12      -7.651582023024e-15 
   55       2.023940242032e-10       2.142593356662e-14      -6.907838403569e-14       1.196117197668e-16       4.253922145642e-11       4.901215625256e-12      -7.736913525741e-15 
   56       2.052207314377e-10       2.265467993599e-14      -1.028052529700e-13       1.240216062744e-16       4.085453000617e-11       4.729386856809e-12      -7.797886497330e-15 
   57       2.080794558282e-10       2.392186103929e-14      -1.382576991548e-13       1.285114164884e-16       3.925989251226e-11       4.566329836684e-12      -7.838356798890e-15 
   58       2.109694718756e-10       2.522735337243e-14      -1.754608914390e-13       1.330810364512e-16       3.775167906323e-11       4.411733960558e-12      -7.862945993376e-15 
   59       2.138886859192e-10       2.657098251704e-14      -2.144413544912e-13       1.377303432487e-16       3.632340354772e-11       4.265003403732e-12      -7.877076797930e-15 
   60       2.168335436525e-10       2.795252215110e-14      -2.552271106741e-13       1.424592049477e-16       3.496555752500e-11       4.125240330197e-12      -7.887008536205e-15 
   61       2.198004870284e-10       2.937166483119e-14      -2.978407427560e-13       1.472675005781e-16       3.366825015691e-11       3.991501284476e-12      -7.898510129647e-15 
   62       2.227909163403e-10       3.082792891400e-14      -3.422764414640e-13       1.521551854629e-16       3.243019627880e-11       3.863671603472e-12      -7.912450799846e-15 
   63       2.258071828874e-10       3.232072889157e-14      -3.885180343212e-13       1.571222405073e-16       3.125146017935e-11       3.741758373171e-12      -7.928278058614e-15 
   64       2.288510954047e-10       3.384939992833e-14      -4.365455290935e-13       1.621686540094e-16       3.013075199610e-11       3.625626603050e-12      -7.945285211292e-15 
   65       2.319238767391e-10       3.541319597601e-14      -4.863350310483e-13       1.672944222328e-16       2.906535062019e-11       3.514991103037e-12      -7.962603579220e-15 
   66       2.350261205269e-10       3.701128788860e-14      -5.378586602131e-13       1.724995499802e-16       2.805102660111e-11       3.409408360457e-12      -7.979194722206e-15 
   67       2.381577478708e-10       3.864276153729e-14      -5.910844686341e-13       1.777840511665e-16       2.708196505135e-11       3.308268416992e-12      -7.993842660993e-15 
   68       2.413184862795e-10       4.030666341103e-14      -6.459795877152e-13       1.831479553943e-16       2.615231835803e-11       3.210961240664e-12      -8.005370443162e-15 
   69       2.445095160194e-10       4.200215236131e-14      -7.025205957337e-13       1.885913279489e-16       2.526140199231e-11       3.117433145552e-12      -8.013358182562e-15 
   70       2.477320810626e-10       4.372837535977e-14      -7.606851120683e-13       1.941142549033e-16       2.440941784765e-11       3.027729042793e-12      -8.017557210169e-15 
   71       2.509869669114e-10       4.548442207449e-14      -8.204487528629e-13       1.997168381871e-16       2.359588280763e-11       2.941824326555e-12      -8.017676600597e-15 
   72       2.542744706330e-10       4.726932419942e-14      -8.817851308958e-13       2.053991963133e-16       2.281959333363e-11       2.859621213784e-12      -8.013381132256e-15 
   73       2.575943708929e-10       4.908205478381e-14      -9.446658554498e-13       2.111614651048e-16       2.207859005259e-11       2.780945083942e-12      -8.004289247500e-15 
   74       2.609458979896e-10       5.092152756159e-14      -1.009060532181e-12       2.170037984211e-16       2.137012234481e-11       2.705540818747e-12      -7.989971012786e-15 
   75       2.643277038884e-10       5.278659628076e-14      -1.074936762990e-12       2.229263688850e-16       2.069061293167e-11       2.633069141919e-12      -7.969946078823e-15 
   76       2.677384574025e-10       5.467604786276e-14      -1.142260713962e-12       2.289293541175e-16       2.003654572130e-11       2.563192760068e-12      -7.944016030891e-15 
   77       2.711788212780e-10       5.658858192254e-14      -1.210998939063e-12       2.350128909402e-16       1.940739454026e-11       2.495861011398e-12      -7.913335917415e-15 
   78       2.746497828733e-10       5.852282627818e-14      -1.281116890311e-12       2.411771141029e-16       1.880316661460e-11       2.431070715279e-12      -7.879535321624e-15 
   79       2.781520441263e-10       6.047734200545e-14      -1.352578390539e-12       2.474221704566e-16       1.822351047776e-11       2.368779186583e-12      -7.844406045120e-15 
   80       2.816860044082e-10       6.245062264068e-14      -1.425345644910e-12       2.537482193830e-16       1.766769949046e-11       2.308902416875e-12      -7.809906924974e-15 
   81       2.852517433762e-10       6.444109338364e-14      -1.499379252439e-12       2.601554332241e-16       1.713461536064e-11       2.251313255597e-12      -7.778168650817e-15 
   82       2.888490038272e-10       6.644711030047e-14      -1.574638217510e-12       2.666439977114e-16       1.662273166335e-11       2.195839591254e-12      -7.751498581937e-15 
   83       2.924771745508e-10       6.846695952651e-14      -1.651079961393e-12       2.732141123955e-16       1.613009736065e-11       2.142262532603e-12      -7.732385564374e-15 
   84       2.961356236694e-10       7.049890005565e-14      -1.728659587177e-12       2.798659895323e-16       1.565481088588e-11       2.090371101556e-12      -7.722742100560e-15 
   85       2.998247997107e-10       7.254130200476e-14      -1.807327509317e-12       2.865998495874e-16       1.519656879756e-11       2.040140713661e-12      -7.721475957888e-15 
   86       3.035452824805e-10       7.459252991564e-14      -1.887031450407e-12       2.934159257706e-16       1.475534483772e-11       1.991581088773e-12      -7.726522944413e-15 
   87       3.072974377152e-10       7.665090114299e-14      -1.967717151811e-12       3.003144659100e-16       1.433091408027e-11       1.944681513839e-12      -7.735565880130e-15 
   88       3.110814058259e-10       7.871468578978e-14      -2.049328372639e-12       3.072957328561e-16       1.392284469560e-11       1.899409973868e-12      -7.746026596468e-15 
   89       3.148970906415e-10       8.078210664270e-14      -2.131806888712e-12       3.143600048850e-16       1.353048971530e-11       1.855712282887e-12      -7.755057935773e-15 
   90       3.187441481532e-10       8.285133910760e-14      -2.215092491537e-12       3.215075761022e-16       1.315297879688e-11       1.813511214912e-12      -7.759535750804e-15 
   91       3.226219752578e-10       8.492051114491e-14      -2.299122987275e-12       3.287387568456e-16       1.278920998839e-11       1.772705634906e-12      -7.756050904224e-15 
   92       3.265296985018e-10       8.698770320507e-14      -2.383834195712e-12       3.360538740898e-16       1.243784149317e-11       1.733169629743e-12      -7.740901268086e-15 
   93       3.304664586789e-10       8.905098702489e-14      -2.469161351491e-12       3.434532882097e-16       1.209760997731e-11       1.694784249225e-12      -7.710998301738e-15 
   94       3.344323380353e-10       9.110854883149e-14      -2.555043551120e-12       3.509374452812e-16       1.176835814234e-11       1.657540077523e-12      -7.666760133381e-15 
   95       3.384275523536e-10       9.315858463508e-14      -2.641419976002e-12       3.585068334296e-16       1.145014719243e-11       1.621448553508e-12      -7.609640830674e-15 
   96       3.424521604254e-10       9.519926348167e-14      -2.728228567743e-12       3.661619677892e-16       1.114294035932e-11       1.586510319495e-12      -7.541259085080e-15 
   97       3.465060568563e-10       9.722872792192e-14      -2.815406046374e-12       3.739033911316e-16       1.084659914946e-11       1.552714799840e-12      -7.463402765618e-15 
   98       3.505889648711e-10       9.924509448002e-14      -2.902887928568e-12       3.817316744933e-16       1.056087959107e-11       1.520039779537e-12      -7.378033472624e-15 
   99       3.547004291181e-10       1.012464541225e-13      -2.990608545860e-12       3.896474178044e-16       1.028542848125e-11       1.488450982815e-12      -7.287291091510e-15 
  100       3.588398084747e-10       1.032308727274e-13      -3.078501062864e-12       3.976512505165e-16       1.001977963301e-11       1.457901651731e-12      -7.193498346520e-15 
  101       3.630062688518e-10       1.051963915524e-13      -3.166497495497e-12       4.057438322307e-16       9.763350122428e-12       1.428332124768e-12      -7.099165354489e-15 
  102       3.671987759992e-10       1.071410277047e-13      -3.254528729195e-12       4.139258533257e-16       9.515436535685e-12       1.399669415432e-12      -7.006994178602e-15 
  103       3.714160883099e-10       1.090627746090e-13      -3.342524537130e-12       4.221980355861e-16       9.275211216169e-12       1.371826790847e-12      -6.919883382154e-15 
  104       3.756570190533e-10       1.109596480913e-13      -3.430414184837e-12       4.305611038031e-16       9.041909857715e-12       1.344723777317e-12      -6.840301623919e-15 
  105       3.799212789120e-10       1.128298307078e-13      -3.518128297843e-12       4.390156948547e-16       8.815431228013e-12       1.318350162433e-12      -6.768302266243e-15 
  106       3.842087343755e-10       1.146715478777e-13      -3.605597281468e-12       4.475624374577e-16       8.595811839728e-12       1.292709893346e-12      -6.703247810416e-15 
  107       3.885191442926e-10       1.164830249679e-13      -3.692750781314e-12       4.562019804029e-16       8.383040208468e-12       1.267801227304e-12      -6.644414554255e-15 
