# dimensionless total [l(l+1)/2pi] C_l's
# for l=2 to 10500, i.e. number of multipoles equal to 10499
#
# -> if you prefer output in CAMB/HealPix/LensPix units/order, set 'format' to 'camb' in input file
# -> if you don't want to see such a header, set 'headers' to 'no' in input file
# -> for CMB lensing (phi), these are C_l^phi-phi for the lensing potential.
#    Remember the conversion factors:
#    C_l^dd (deflection) = l(l+1) C_l^phi-phi
#    C_l^gg (shear/convergence) = 1/4 (l(l+1))^2 C_l^phi-phi
#
# 1:l     2:TT                     3:EE                     4:TE                     5:BB                     6:phiphi                 7:TPhi                   8:Ephi               
    2       1.372498560165e-10       4.281122827953e-15       3.615922531907e-13       0.000000000000e+00       8.162995267214e-09       4.457200120125e-10      -1.853175028220e-12 
    3       1.299001121860e-10       5.731540927235e-15       4.147056256912e-13       0.000000000000e+00       5.046253093931e-09       3.162409919880e-10      -1.423220178646e-12 
    4       1.228739729158e-10       5.341312148710e-15       3.975390645855e-13       0.000000000000e+00       3.509078873726e-09       2.395292495793e-10      -9.685469555065e-13 
    5       1.175384098360e-10       3.988277228133e-15       3.486829690758e-13       0.000000000000e+00       2.616780531449e-09       1.892714917419e-10      -5.928294325247e-13 
    6       1.138036470244e-10       2.559340321779e-15       2.904076922677e-13       0.000000000000e+00       2.042526452996e-09       1.541158951836e-10      -3.175315819651e-13 
    7       1.113322214001e-10       1.508611005830e-15       2.359956477376e-13       0.000000000000e+00       1.647597568892e-09       1.283964694995e-10      -1.365372106140e-13 
    8       1.098179528734e-10       8.937810567672e-16       1.916900361465e-13       0.000000000000e+00       1.361846545230e-09       1.089055484759e-10      -3.111940883857e-14 
    9       1.090224679770e-10       5.902301047059e-16       1.594675865883e-13       0.000000000000e+00       1.146995119812e-09       9.370294719661e-11       2.081141279252e-14 
   10       1.087575347589e-10       4.548014729377e-16       1.388017721964e-13       0.000000000000e+00       9.807314897230e-10       8.158386438653e-11       3.936697914665e-14 
   11       1.089249243597e-10       3.921768537427e-16       1.278525800944e-13       0.000000000000e+00       8.247270116515e-10       7.203705420864e-11       4.010916749286e-14 
   12       1.094347229911e-10       3.574313228687e-16       1.242145991385e-13       0.000000000000e+00       7.204835375099e-10       6.375877755816e-11       3.282117646185e-14 
   13       1.102036003965e-10       3.367683889058e-16       1.255843060139e-13       0.000000000000e+00       6.349328709057e-10       5.696931834495e-11       2.348554383753e-14 
   14       1.111509118786e-10       3.296871261862e-16       1.301416703953e-13       0.000000000000e+00       5.637692105436e-10       5.104548454956e-11       1.416460193594e-14 
   15       1.122924304700e-10       3.388725327535e-16       1.366595764586e-13       0.000000000000e+00       5.038826421856e-10       4.608135147616e-11       6.210524963538e-15 
   16       1.136041429248e-10       3.663271658490e-16       1.442640763006e-13       0.000000000000e+00       4.529752145178e-10       4.186408427620e-11      -1.646595133489e-16 
   17       1.150133037211e-10       4.128503742065e-16       1.524589906516e-13       0.000000000000e+00       4.093143308961e-10       3.821964764153e-11      -4.912510963547e-15 
   18       1.165178396156e-10       4.782466213539e-16       1.610847743884e-13       0.000000000000e+00       3.714246936009e-10       3.498522782317e-11      -8.127954600301e-15 
   19       1.181298238016e-10       5.623801625200e-16       1.700225392085e-13       0.000000000000e+00       3.387052227614e-10       3.213717560567e-11      -9.919895892101e-15 
   20       1.198049255415e-10       6.645392041095e-16       1.790791323941e-13       0.000000000000e+00       3.098913335755e-10       2.962975984225e-11      -1.053944383263e-14 
   21       1.215545947477e-10       7.849319104268e-16       1.881159244380e-13       0.000000000000e+00       2.845294325738e-10       2.742142052936e-11      -1.032758522750e-14 
   22       1.233756697083e-10       9.238373795709e-16       1.969854557624e-13       0.000000000000e+00       2.620123513149e-10       2.543484245956e-11      -9.735220152239e-15 
   23       1.252590628466e-10       1.081952058796e-15       2.055843650716e-13       0.000000000000e+00       2.420299147090e-10       2.363885244073e-11      -9.073113295321e-15 
   24       1.271766947669e-10       1.260003611529e-15       2.138133299237e-13       0.000000000000e+00       2.241193914861e-10       2.199993915176e-11      -8.591864136408e-15 
   25       1.291465141704e-10       1.458896172422e-15       2.216059864365e-13       0.000000000000e+00       2.080696852027e-10       2.052513612876e-11      -8.242238131155e-15 
   26       1.311814360307e-10       1.679531916771e-15       2.288931167926e-13       0.000000000000e+00       1.935899170171e-10       1.921549210598e-11      -7.876602171065e-15 
   27       1.332624890060e-10       1.922870507339e-15       2.355738237378e-13       0.000000000000e+00       1.805061469085e-10       1.803966818587e-11      -7.455847488578e-15 
   28       1.353539502013e-10       2.189828341167e-15       2.415366260016e-13       0.000000000000e+00       1.685925571851e-10       1.695034758557e-11      -6.986069750160e-15 
   29       1.374651167456e-10       2.481243810810e-15       2.467174883562e-13       0.000000000000e+00       1.577881334646e-10       1.594444549310e-11      -6.540042068254e-15 
   30       1.396100035366e-10       2.797856708975e-15       2.510660315333e-13       0.000000000000e+00       1.479766325984e-10       1.502518241349e-11      -6.226953019527e-15 
   31       1.417924800977e-10       3.140402500057e-15       2.545248588146e-13       0.000000000000e+00       1.389576416300e-10       1.418752312705e-11      -6.143381025856e-15 
   32       1.440149066906e-10       3.509985393739e-15       2.570065422149e-13       0.000000000000e+00       1.306845132796e-10       1.342368694708e-11      -6.243167534222e-15 
   33       1.462700725846e-10       3.907844389913e-15       2.584065039155e-13       0.000000000000e+00       1.230987118430e-10       1.271797753183e-11      -6.415914492609e-15 
   34       1.485446963616e-10       4.335165420407e-15       2.586242779531e-13       0.000000000000e+00       1.160940250751e-10       1.205118027556e-11      -6.547635482060e-15 
   35       1.508445793337e-10       4.792756102869e-15       2.576203345851e-13       0.000000000000e+00       1.096345591710e-10       1.142417617420e-11      -6.623674028044e-15 
   36       1.531766373720e-10       5.281249160471e-15       2.553794304751e-13       0.000000000000e+00       1.036684352334e-10       1.084180612516e-11      -6.661153786642e-15 
   37       1.555426584960e-10       5.801238087001e-15       2.518880640434e-13       0.000000000000e+00       9.811793600643e-11       1.030614389980e-11      -6.679178474179e-15 
   38       1.579432375203e-10       6.353472911841e-15       2.471064743015e-13       0.000000000000e+00       9.296869875443e-11       9.815744564356e-12      -6.688333868883e-15 
   39       1.603739563948e-10       6.938722588773e-15       2.409876031065e-13       0.000000000000e+00       8.820436962777e-11       9.365638019934e-12      -6.698041341857e-15 
   40       1.628234820880e-10       7.557719824520e-15       2.334844439535e-13       0.000000000000e+00       8.377947345745e-11       8.947138283887e-12      -6.719496929636e-15 
   41       1.652789364768e-10       8.211179958973e-15       2.245504014079e-13       0.000000000000e+00       7.963525484772e-11       8.550527010357e-12      -6.762378366360e-15 
   42       1.677457016423e-10       8.899870171357e-15       2.141407893398e-13       0.000000000000e+00       7.575950988457e-11       8.174890272312e-12      -6.823439211648e-15 
   43       1.702329463398e-10       9.624559180646e-15       2.022116249187e-13       0.000000000000e+00       7.214195616309e-11       7.820968954377e-12      -6.894368169586e-15 
   44       1.727479062993e-10       1.038599746433e-14       1.887191131938e-13       0.000000000000e+00       6.875627933983e-11       7.488346983542e-12      -6.964728629019e-15 
   45       1.752954262853e-10       1.118485584712e-14       1.736240276541e-13       0.000000000000e+00       6.556953313054e-11       7.175852130832e-12      -7.024845052072e-15 
   46       1.778770089336e-10       1.202152109800e-14       1.569066068479e-13       0.000000000000e+00       6.257669809495e-11       6.883137940995e-12      -7.075807168269e-15 
   47       1.804910586102e-10       1.289623798003e-14       1.385559717737e-13       0.000000000000e+00       5.977428350802e-11       6.609403921734e-12      -7.122228525644e-15 
   48       1.831328121001e-10       1.380916050804e-14       1.185662204078e-13       0.000000000000e+00       5.714990371959e-11       6.352865686241e-12      -7.169524468868e-15 
   49       1.857940779151e-10       1.476034772234e-14       9.693660270416e-14       0.000000000000e+00       5.468161670110e-11       6.110683400547e-12      -7.223951989436e-15 
   50       1.884665017765e-10       1.574982219345e-14       7.366487394484e-14       0.000000000000e+00       5.234453201790e-11       5.879785736552e-12      -7.291142016910e-15 
   51       1.911530128268e-10       1.677777406306e-14       4.872482186551e-14       0.000000000000e+00       5.013428386841e-11       5.659771398227e-12      -7.371134173383e-15 
   52       1.938590337399e-10       1.784440508221e-14       2.208294202018e-14       0.000000000000e+00       4.804878617369e-11       5.450671498754e-12      -7.462063142741e-15 
   53       1.965891335876e-10       1.894986947679e-14      -6.295416269770e-15       0.000000000000e+00       4.608120823894e-11       5.252094177015e-12      -7.561518078329e-15 
   54       1.993469330854e-10       2.009427267320e-14      -3.644619593455e-14       0.000000000000e+00       4.421965539088e-11       5.063195186386e-12      -7.666511509195e-15 
   55       2.021350421007e-10       2.127765273221e-14      -6.840003619927e-14       0.000000000000e+00       4.245079827754e-11       4.882983759219e-12      -7.773752749794e-15 
   56       2.049550710746e-10       2.249992216859e-14      -1.021602313738e-13       0.000000000000e+00       4.077254819422e-11       4.711396557468e-12      -7.880618899452e-15 
   57       2.078074564671e-10       2.376090944616e-14      -1.377195523169e-13       0.000000000000e+00       3.918397119200e-11       4.548438998413e-12      -7.984370596852e-15 
   58       2.106913372795e-10       2.506037309784e-14      -1.750663945647e-13       0.000000000000e+00       3.768145338000e-11       4.393857360996e-12      -8.081849839095e-15 
   59       2.136044615566e-10       2.639799977763e-14      -2.141846616751e-13       0.000000000000e+00       3.625853540682e-11       4.247122437305e-12      -8.169460751713e-15 
   60       2.165430928888e-10       2.777340231262e-14      -2.550536485729e-13       0.000000000000e+00       3.490574694192e-11       4.107413184047e-12      -8.243150358679e-15 
   61       2.195035114109e-10       2.918612947766e-14      -2.976531697889e-13       0.000000000000e+00       3.361323664947e-11       3.973854957573e-12      -8.299438079803e-15 
   62       2.224871220219e-10       3.063570229024e-14      -3.419805532011e-13       0.000000000000e+00       3.237972639089e-11       3.846333691969e-12      -8.338817758941e-15 
   63       2.254963320647e-10       3.212158244270e-14      -3.880372710734e-13       0.000000000000e+00       3.120528232034e-11       3.724836292931e-12      -8.363088608808e-15 
   64       2.285330159515e-10       3.364315975359e-14      -4.358240805285e-13       0.000000000000e+00       3.008862144860e-11       3.609204073569e-12      -8.374387634165e-15 
   65       2.315984722580e-10       3.519975059167e-14      -4.853410733092e-13       0.000000000000e+00       2.902703482334e-11       3.499124483628e-12      -8.375203677162e-15 
   66       2.346933808183e-10       3.679059629983e-14      -5.365877255395e-13       0.000000000000e+00       2.801631070937e-11       3.394122838713e-12      -8.368391462675e-15 
   67       2.378177598187e-10       3.841486161905e-14      -5.895629474857e-13       0.000000000000e+00       2.705065776891e-11       3.293554049511e-12      -8.357185643643e-15 
   68       2.409714231985e-10       4.007166313503e-14      -6.442614818913e-13       0.000000000000e+00       2.612425196149e-11       3.196776356645e-12      -8.344494580610e-15 
   69       2.441555563828e-10       4.176016483426e-14      -7.006621403004e-13       0.000000000000e+00       2.523641293472e-11       3.103731901645e-12      -8.330584115360e-15 
   70       2.473713842238e-10       4.347949916783e-14      -7.587372615451e-13       0.000000000000e+00       2.438734332350e-11       3.014469477471e-12      -8.314947544117e-15 
   71       2.506196693751e-10       4.522873794817e-14      -8.184561094256e-13       0.000000000000e+00       2.357656317446e-11       2.928969380443e-12      -8.296980060035e-15 
   72       2.539006821812e-10       4.700689154088e-14      -8.797848290842e-13       0.000000000000e+00       2.280287465367e-11       2.847139794346e-12      -8.275974377414e-15 
   73       2.572141705678e-10       4.881290805649e-14      -9.426864033802e-13       0.000000000000e+00       2.206432675421e-11       2.768813174526e-12      -8.251116355921e-15 
   74       2.605593299314e-10       5.064567254229e-14      -1.007120609264e-12       0.000000000000e+00       2.135818000381e-11       2.693742631990e-12      -8.221480624809e-15 
   75       2.639347730295e-10       5.250400617409e-14      -1.073043974150e-12       0.000000000000e+00       2.068087117244e-11       2.621598317501e-12      -8.186026207129e-15 
   76       2.673391347337e-10       5.438666538337e-14      -1.140412438269e-12       0.000000000000e+00       2.002889794718e-11       2.552051257955e-12      -8.144067348312e-15 
   77       2.707730801647e-10       5.629234084128e-14      -1.209189998643e-12       0.000000000000e+00       1.940173721874e-11       2.485050508303e-12      -8.096794796487e-15 
   78       2.742376097480e-10       5.821965682017e-14      -1.279341569446e-12       0.000000000000e+00       1.879939731188e-11       2.420590205062e-12      -8.046025273912e-15 
   79       2.777334400217e-10       6.016717044540e-14      -1.350830427533e-12       0.000000000000e+00       1.822152906656e-11       2.358624804510e-12      -7.993756164818e-15 
   80       2.812609865449e-10       6.213337088578e-14      -1.423618224305e-12       0.000000000000e+00       1.766740941022e-11       2.299067260063e-12      -7.942170884073e-15 
   81       2.848203468061e-10       6.411667854409e-14      -1.497664997571e-12       0.000000000000e+00       1.713592493008e-11       2.241787199652e-12      -7.893644245855e-15 
   82       2.884112831314e-10       6.611544424751e-14      -1.572929183411e-12       0.000000000000e+00       1.662555544541e-11       2.186609103106e-12      -7.850747832316e-15 
   83       2.920332055929e-10       6.812794843813e-14      -1.649367628035e-12       0.000000000000e+00       1.613435757989e-11       2.133310479525e-12      -7.816255362255e-15 
   84       2.956855019242e-10       7.015244791078e-14      -1.726935224708e-12       0.000000000000e+00       1.566043721421e-11       2.081677327066e-12      -7.792329480937e-15 
   85       2.993686275467e-10       7.218732670247e-14      -1.805583729355e-12       0.000000000000e+00       1.520349281973e-11       2.031685068459e-12      -7.777915472468e-15 
   86       3.030831657501e-10       7.423096884928e-14      -1.885262769443e-12       0.000000000000e+00       1.476349904705e-11       1.983344408544e-12      -7.770923314437e-15 
   87       3.068294856582e-10       7.628171305280e-14      -1.965920206944e-12       0.000000000000e+00       1.434023250362e-11       1.936645871570e-12      -7.768999575730e-15 
   88       3.106077309690e-10       7.833785266966e-14      -2.047502143901e-12       0.000000000000e+00       1.393326354247e-11       1.891558941304e-12      -7.769519027574e-15 
   89       3.144178086952e-10       8.039763570118e-14      -2.129952927982e-12       0.000000000000e+00       1.354194805098e-11       1.848031201139e-12      -7.769576254576e-15 
   90       3.182593779047e-10       8.245926478288e-14      -2.213215158047e-12       0.000000000000e+00       1.316541923970e-11       1.805987474201e-12      -7.765977265765e-15 
   91       3.221318384610e-10       8.452089717413e-14      -2.297229689706e-12       0.000000000000e+00       1.280257943104e-11       1.765328963456e-12      -7.755231105629e-15 
   92       3.260343197633e-10       8.658064474770e-14      -2.381935640880e-12       0.000000000000e+00       1.245209184809e-11       1.725932391823e-12      -7.733541465158e-15 
   93       3.299659654529e-10       8.863660511065e-14      -2.467271104922e-12       0.000000000000e+00       1.211269789209e-11       1.687681278336e-12      -7.697733344713e-15 
   94       3.339268609695e-10       9.068696034368e-14      -2.553175400587e-12       0.000000000000e+00       1.178424139535e-11       1.650567015230e-12      -7.648210689667e-15 
   95       3.379172253308e-10       9.272989316202e-14      -2.639587172312e-12       0.000000000000e+00       1.146678395112e-11       1.614601473740e-12      -7.586430142842e-15 
   96       3.419371204959e-10       9.476355751868e-14      -2.726443727880e-12       0.000000000000e+00       1.116028945763e-11       1.579785809414e-12      -7.514010014542e-15 
   97       3.459864441688e-10       9.678607902140e-14      -2.813681053693e-12       0.000000000000e+00       1.086462037484e-11       1.546110043345e-12      -7.432734728893e-15 
   98       3.500649226010e-10       9.879555534952e-14      -2.901233830042e-12       0.000000000000e+00       1.057953398111e-11       1.513552643409e-12      -7.344559270192e-15 
   99       3.541721033952e-10       1.007900566709e-13      -2.989035446385e-12       0.000000000000e+00       1.030467862993e-11       1.482080105496e-12      -7.251613629248e-15 
  100       3.583073483078e-10       1.027676260590e-13      -3.077018016618e-12       0.000000000000e+00       1.003959000657e-11       1.451646534746e-12      -7.156207249722e-15 
  101       3.624698260519e-10       1.047262799094e-13      -3.165112394350e-12       0.000000000000e+00       9.783687384841e-12       1.422193226783e-12      -7.060833474476e-15 
  102       3.666585051010e-10       1.066640083572e-13      -3.253248188174e-12       0.000000000000e+00       9.536269883734e-12       1.393648248947e-12      -6.968173991915e-15 
  103       3.708721464914e-10       1.085787756938e-13      -3.341353776943e-12       0.000000000000e+00       9.296512724155e-12       1.365926021535e-12      -6.881103282327e-15 
  104       3.751095667759e-10       1.104685725806e-13      -3.429357242299e-12       0.000000000000e+00       9.063654274978e-12       1.338946962321e-12      -6.802060516179e-15 
  105       3.793704828401e-10       1.123315798273e-13      -3.517189276825e-12       0.000000000000e+00       8.837594030044e-12       1.312700344339e-12      -6.731059041216e-15 
  106       3.836547683224e-10       1.141660276180e-13      -3.604780699048e-12       0.000000000000e+00       8.618368806604e-12       1.287189188104e-12      -6.667415043580e-15 
  107       3.879621894775e-10       1.159701466640e-13      -3.692061596306e-12       0.000000000000e+00       8.405967542457e-12       1.262410760667e-12      -6.610353609908e-15 
