# dimensionless total [l(l+1)/2pi] C_l's
# for l=2 to 10500, i.e. number of multipoles equal to 10499
#
# -> if you prefer output in CAMB/HealPix/LensPix units/order, set 'format' to 'camb' in input file
# -> if you don't want to see such a header, set 'headers' to 'no' in input file
# -> for CMB lensing (phi), these are C_l^phi-phi for the lensing potential.
#    Remember the conversion factors:
#    C_l^dd (deflection) = l(l+1) C_l^phi-phi
#    C_l^gg (shear/convergence) = 1/4 (l(l+1))^2 C_l^phi-phi
#
# 1:l     2:TT                     3:EE                     4:TE                     5:BB                     6:phiphi                 7:TPhi                   8:Ephi               
    2       1.375040410448e-10       4.613039910452e-15       3.702642743583e-13       0.000000000000e+00       8.124108354043e-09       4.465327792978e-10      -1.944619623802e-12 
    3       1.301349505762e-10       6.278444043162e-15       4.257165725441e-13       0.000000000000e+00       5.042794505470e-09       3.172162643358e-10      -1.524273126620e-12 
    4       1.230906307627e-10       5.790488787696e-15       4.060485130355e-13       0.000000000000e+00       3.510511172232e-09       2.403572208832e-10      -1.047459126103e-12 
    5       1.177548711761e-10       4.131423335756e-15       3.521521623463e-13       0.000000000000e+00       2.619568015523e-09       1.899138843353e-10      -6.289395779571e-13 
    6       1.140481286040e-10       2.441440596628e-15       2.881256034261e-13       0.000000000000e+00       2.044160651603e-09       1.545409051996e-10      -3.038485898648e-13 
    7       1.116277625187e-10       1.323711215207e-15       2.285272185738e-13       0.000000000000e+00       1.647798904217e-09       1.286174110380e-10      -8.007497760770e-14 
    8       1.101835830276e-10       7.986561209155e-16       1.803984015682e-13       0.000000000000e+00       1.361780918783e-09       1.089808803733e-10       5.066843086196e-14 
    9       1.094726403818e-10       6.130662752468e-16       1.461458854080e-13       0.000000000000e+00       1.147206562431e-09       9.370003741332e-11       1.060137568469e-13 
   10       1.092940654935e-10       5.323910438792e-16       1.252725458714e-13       0.000000000000e+00       9.810193825851e-10       8.155730451893e-11       1.080336732055e-13 
   11       1.095479253477e-10       4.565797326778e-16       1.155530191499e-13       0.000000000000e+00       8.247317874702e-10       7.202190299072e-11       7.926651286374e-14 
   12       1.101379814357e-10       3.869914540208e-16       1.140661332169e-13       0.000000000000e+00       7.204876242343e-10       6.379152605354e-11       3.874487975071e-14 
   13       1.109766427352e-10       3.489148860152e-16       1.179038196412e-13       0.000000000000e+00       6.349363063322e-10       5.705100973607e-11       8.424705515172e-16 
   14       1.119852272968e-10       3.472283204513e-16       1.246567601949e-13       0.000000000000e+00       5.637724136974e-10       5.116064680896e-11      -2.652046355363e-14 
   15       1.131790642205e-10       3.680054802423e-16       1.326831188191e-13       0.000000000000e+00       5.038855198256e-10       4.620720090390e-11      -4.005579229599e-14 
   16       1.145307436634e-10       3.983765606836e-16       1.409784353180e-13       0.000000000000e+00       4.529777637045e-10       4.198002994095e-11      -4.106640212529e-14 
   17       1.159754325210e-10       4.377338821963e-16       1.490359796177e-13       0.000000000000e+00       4.093167152456e-10       3.831270768475e-11      -3.338025939451e-14 
   18       1.175099366149e-10       4.944835779525e-16       1.569223593498e-13       0.000000000000e+00       3.714268163289e-10       3.505165544008e-11      -2.196866493696e-14 
   19       1.191455790377e-10       5.734738451599e-16       1.649070169183e-13       0.000000000000e+00       3.387072027422e-10       3.217947710999e-11      -1.052382577577e-14 
   20       1.208387309979e-10       6.768509579070e-16       1.732867435288e-13       0.000000000000e+00       3.098931344483e-10       2.965574012927e-11      -2.532615902407e-15 
   21       1.226015684731e-10       8.027103810403e-16       1.821772092410e-13       0.000000000000e+00       2.845310537263e-10       2.743960252676e-11       9.845709536637e-16 
   22       1.244316038412e-10       9.474250485734e-16       1.915720923987e-13       0.000000000000e+00       2.620138776329e-10       2.545228869862e-11       1.971055053538e-16 
   23       1.263197229160e-10       1.111166128232e-15       2.012689834489e-13       0.000000000000e+00       2.420313806356e-10       2.366065992952e-11      -3.694556977252e-15 
   24       1.282377409998e-10       1.294985761143e-15       2.109388250473e-13       0.000000000000e+00       2.241207457280e-10       2.202856405917e-11      -8.839018255808e-15 
   25       1.302047015374e-10       1.498628318521e-15       2.202505763247e-13       0.000000000000e+00       2.080709120510e-10       2.056070284201e-11      -1.365649611675e-14 
   26       1.322350344936e-10       1.721431895617e-15       2.288429296882e-13       0.000000000000e+00       1.935910668922e-10       1.925574097956e-11      -1.665936569634e-14 
   27       1.343108068916e-10       1.964067756827e-15       2.364484876872e-13       0.000000000000e+00       1.805072513595e-10       1.808098616302e-11      -1.747093701257e-14 
   28       1.363970959108e-10       2.227772318389e-15       2.428525680134e-13       0.000000000000e+00       1.685936045381e-10       1.698842862358e-11      -1.621209059120e-14 
   29       1.385035082648e-10       2.514343199484e-15       2.480387766746e-13       0.000000000000e+00       1.577891104945e-10       1.597620516177e-11      -1.351438504750e-14 
   30       1.406440781858e-10       2.825954835213e-15       2.520845761207e-13       0.000000000000e+00       1.479775391965e-10       1.504979681180e-11      -1.037177097589e-14 
   31       1.428224552589e-10       3.164786452548e-15       2.550964775553e-13       0.000000000000e+00       1.389584905643e-10       1.420658008687e-11      -7.854987060382e-15 
   32       1.450404574976e-10       3.531957433278e-15       2.571298710175e-13       0.000000000000e+00       1.306853166753e-10       1.343943175020e-11      -6.295664974889e-15 
   33       1.472900126496e-10       3.928184432439e-15       2.582428183266e-13       0.000000000000e+00       1.230994758321e-10       1.273275999506e-11      -5.802553782253e-15 
   34       1.495570046819e-10       4.354094108829e-15       2.584799638980e-13       0.000000000000e+00       1.160947495682e-10       1.206724350552e-11      -6.384515300758e-15 
   35       1.518476567695e-10       4.810397719959e-15       2.577392483138e-13       0.000000000000e+00       1.096352441092e-10       1.144294908489e-11      -7.653431305739e-15 
   36       1.541697589471e-10       5.297762973239e-15       2.558564245071e-13       0.000000000000e+00       1.036690825719e-10       1.086348808979e-11      -9.003040660539e-15 
   37       1.565259379559e-10       5.816821792380e-15       2.526609669192e-13       0.000000000000e+00       9.811854953051e-11       1.032970362081e-11      -9.829065274739e-15 
   38       1.589170086497e-10       6.368379893184e-15       2.480550549611e-13       0.000000000000e+00       9.296928226150e-11       9.839965517248e-12      -1.005224146644e-14 
   39       1.613385390811e-10       6.953269805245e-15       2.419591176555e-13       0.000000000000e+00       8.820492618261e-11       9.389455520227e-12      -9.764623916169e-15 
   40       1.637790937595e-10       7.572292064985e-15       2.342903760191e-13       0.000000000000e+00       8.378000505115e-11       8.969702154407e-12      -9.092693269608e-15 
   41       1.662256179828e-10       8.226171933707e-15       2.249852552715e-13       0.000000000000e+00       7.963576234925e-11       8.571264342778e-12      -8.190442373915e-15 
   42       1.686833124217e-10       8.915417741450e-15       2.140759527862e-13       0.000000000000e+00       7.575999404810e-11       8.193557547360e-12      -7.210005836539e-15 
   43       1.711610986334e-10       9.640412833723e-15       2.016384058903e-13       0.000000000000e+00       7.214241787906e-11       7.837719013791e-12      -6.325616009246e-15 
   44       1.736658716668e-10       1.040144786275e-14       1.877731004637e-13       0.000000000000e+00       6.875671959249e-11       7.503804343587e-12      -5.743940928638e-15 
   45       1.762021620616e-10       1.119880142961e-14       1.725696609333e-13       0.000000000000e+00       6.556995297484e-11       7.191041555872e-12      -5.643835738698e-15 
   46       1.787716034208e-10       1.203302244579e-14       1.559848874860e-13       0.000000000000e+00       6.257709870827e-11       6.898910558524e-12      -5.969872435073e-15 
   47       1.813728710572e-10       1.290472375128e-14       1.379305009427e-13       0.000000000000e+00       5.977466618218e-11       6.626222745053e-12      -6.580148302338e-15 
   48       1.840014971883e-10       1.381450381380e-14       1.183059312324e-13       0.000000000000e+00       5.715026982820e-11       6.370724682441e-12      -7.301251382439e-15 
   49       1.866496106906e-10       1.476294669970e-14       9.699752139793e-14       0.000000000000e+00       5.468196766400e-11       6.129022076817e-12      -7.926488573327e-15 
   50       1.893091487841e-10       1.575053733482e-14       7.390190266273e-14       0.000000000000e+00       5.234486924141e-11       5.897554992712e-12      -8.270420599640e-15 
   51       1.919831235977e-10       1.677738023787e-14       4.900544635728e-14       0.000000000000e+00       5.013460861200e-11       5.676011980685e-12      -8.354028926539e-15 
   52       1.946769639337e-10       1.784340439013e-14       2.232500239606e-14       0.000000000000e+00       4.804909946513e-11       5.464711246040e-12      -8.266747471356e-15 
   53       1.973952160611e-10       1.894843735270e-14      -6.114053503077e-15       0.000000000000e+00       4.608151080517e-11       5.263604458399e-12      -8.115405628330e-15 
   54       2.001414468538e-10       2.009220125107e-14      -3.627747835088e-14       0.000000000000e+00       4.421994758487e-11       5.072250188122e-12      -8.025106102399e-15 
   55       2.029182074501e-10       2.127440581346e-14      -6.813503696135e-14       0.000000000000e+00       4.245108010538e-11       4.890028795315e-12      -8.108323463975e-15 
   56       2.057271355602e-10       2.249506375045e-14      -1.017036549238e-13       0.000000000000e+00       4.077281968117e-11       4.716910464762e-12      -8.361199264560e-15 
   57       2.085687089135e-10       2.375424668913e-14      -1.370143876476e-13       0.000000000000e+00       3.918423248682e-11       4.552831439163e-12      -8.743021996322e-15 
   58       2.114420945186e-10       2.505199475458e-14      -1.741003127382e-13       0.000000000000e+00       3.768170476265e-11       4.397452500046e-12      -9.205396738553e-15 
   59       2.143450541597e-10       2.638831633582e-14      -2.129967034599e-13       0.000000000000e+00       3.625877729626e-11       4.250141811427e-12      -9.691884837726e-15 
   60       2.172738498932e-10       2.776318785166e-14      -2.537412021975e-13       0.000000000000e+00       3.490597990401e-11       4.109957763481e-12      -1.013764358755e-14 
   61       2.202247457337e-10       2.917646190741e-14      -2.963629305690e-13       0.000000000000e+00       3.361346137436e-11       3.975914529442e-12      -1.048369457120e-14 
   62       2.231991203896e-10       3.062756820463e-14      -3.408465709760e-13       0.000000000000e+00       3.237994357063e-11       3.847887203278e-12      -1.072428635395e-14 
   63       2.261993396608e-10       3.211574477640e-14      -3.871604938919e-13       0.000000000000e+00       3.120549260397e-11       3.725880310278e-12      -1.086957184289e-14 
   64       2.292272185278e-10       3.364012059390e-14      -4.352669357291e-13       0.000000000000e+00       3.008882542507e-11       3.609754997815e-12      -1.093201950998e-14 
   65       2.322839772941e-10       3.519971242565e-14      -4.851218212688e-13       0.000000000000e+00       2.902723300347e-11       3.499220849287e-12      -1.092651722841e-14 
   66       2.353701977288e-10       3.679342169669e-14      -5.366745860924e-13       0.000000000000e+00       2.801650350708e-11       3.393827698065e-12      -1.087047610912e-14 
   67       2.384857792092e-10       3.842003134778e-14      -5.898679990111e-13       0.000000000000e+00       2.705084548148e-11       3.292957441430e-12      -1.078393433721e-14 
   68       2.416304307339e-10       4.007832551361e-14      -6.446487347916e-13       0.000000000000e+00       2.612443477525e-11       3.195990834641e-12      -1.068539274047e-14 
   69       2.448053607666e-10       4.176748373744e-14      -7.010019769500e-13       0.000000000000e+00       2.523659101495e-11       3.102865417020e-12      -1.057810952378e-14 
   70       2.480118525847e-10       4.348676135946e-14      -7.589235396160e-13       0.000000000000e+00       2.438751683563e-11       3.013616450021e-12      -1.046120226392e-14 
   71       2.512507290929e-10       4.523537376577e-14      -8.184098332357e-13       0.000000000000e+00       2.357673228047e-11       2.928208295429e-12      -1.033366523460e-14 
   72       2.545223226707e-10       4.701249638875e-14      -8.794579619462e-13       0.000000000000e+00       2.280303950821e-11       2.846530704508e-12      -1.019436408007e-14 
   73       2.578264450201e-10       4.881726470739e-14      -9.420658209490e-13       0.000000000000e+00       2.206448750056e-11       2.768395107131e-12      -1.004203048869e-14 
   74       2.611623570131e-10       5.064877424767e-14      -1.006232193885e-12       0.000000000000e+00       2.135833676961e-11       2.693530900919e-12      -9.875256866520e-15 
   75       2.645287385396e-10       5.250608058291e-14      -1.071956850207e-12       0.000000000000e+00       2.068102406532e-11       2.621581740384e-12      -9.692491010880e-15 
   76       2.679242809305e-10       5.438814331611e-14      -1.139232666339e-12       0.000000000000e+00       2.002904705815e-11       2.552194966326e-12      -9.493106578255e-15 
   77       2.713496556008e-10       5.629364623297e-14      -1.208020115196e-12       0.000000000000e+00       1.940188265142e-11       2.485316924257e-12      -9.280851623705e-15 
   78       2.748058512853e-10       5.822114420119e-14      -1.278268279997e-12       0.000000000000e+00       1.879953919024e-11       2.420945007026e-12      -9.061022163891e-15 
   79       2.782935662057e-10       6.016911514927e-14      -1.349922352679e-12       0.000000000000e+00       1.822166753510e-11       2.359037520241e-12      -8.839458634149e-15 
   80       2.818131906847e-10       6.213595891815e-14      -1.422923567712e-12       0.000000000000e+00       1.766754463407e-11       2.299511881314e-12      -8.622562622113e-15 
   81       2.853647897603e-10       6.411999611291e-14      -1.497209135911e-12       0.000000000000e+00       1.713605709510e-11       2.242242818524e-12      -8.417313601328e-15 
   82       2.889480857993e-10       6.611946695440e-14      -1.572712178257e-12       0.000000000000e+00       1.662568475824e-11       2.187060570062e-12      -8.231285664870e-15 
   83       2.925624411118e-10       6.813253013089e-14      -1.649361659704e-12       0.000000000000e+00       1.613448426799e-11       2.133749083096e-12      -8.072664258958e-15 
   84       2.962072006061e-10       7.015733692133e-14      -1.727088126181e-12       0.000000000000e+00       1.566056151894e-11       2.082100156357e-12      -7.948143638748e-15 
   85       2.998828231037e-10       7.219227019909e-14      -1.805842153299e-12       0.000000000000e+00       1.520361496720e-11       2.032090125727e-12      -7.856182096506e-15 
   86       3.035899065680e-10       7.423574312876e-14      -1.885578848918e-12       0.000000000000e+00       1.476361923747e-11       1.983729303626e-12      -7.792654074606e-15 
   87       3.073288335713e-10       7.628612753241e-14      -1.966252352787e-12       0.000000000000e+00       1.434035090709e-11       1.937007791716e-12      -7.752851421774e-15 
   88       3.110997599590e-10       7.834175400636e-14      -2.047815867885e-12       0.000000000000e+00       1.393338029463e-11       1.891894620188e-12      -7.731464508587e-15 
   89       3.149026035159e-10       8.040091203789e-14      -2.130221691775e-12       0.000000000000e+00       1.354206324859e-11       1.848336887044e-12      -7.722563342974e-15 
   90       3.187370326305e-10       8.246185012198e-14      -2.213421247949e-12       0.000000000000e+00       1.316553293593e-11       1.806258897374e-12      -7.719578685723e-15 
   91       3.226024549606e-10       8.452277587802e-14      -2.297365117173e-12       0.000000000000e+00       1.280269163079e-11       1.765561302644e-12      -7.715283165977e-15 
   92       3.264980060983e-10       8.658185616655e-14      -2.382003068841e-12       0.000000000000e+00       1.245220250304e-11       1.726120239974e-12      -7.701772396738e-15 
   93       3.304228344990e-10       8.863723720229e-14      -2.467282613552e-12       0.000000000000e+00       1.211280690814e-11       1.687818844948e-12      -7.672210643669e-15 
   94       3.343770299085e-10       9.068710809990e-14      -2.553144343764e-12       0.000000000000e+00       1.178434867951e-11       1.650649081116e-12      -7.626409179559e-15 
   95       3.383608142644e-10       9.272964714576e-14      -2.639525947069e-12       0.000000000000e+00       1.146688942458e-11       1.614623705538e-12      -7.566055903061e-15 
   96       3.423742507028e-10       9.476300303931e-14      -2.726363633427e-12       0.000000000000e+00       1.116039305701e-11       1.579744849113e-12      -7.493030806311e-15 
   97       3.464172362908e-10       9.678529528419e-14      -2.813592146212e-12       0.000000000000e+00       1.086472205342e-11       1.546003600251e-12      -7.409411312158e-15 
   98       3.504894947581e-10       9.879461457949e-14      -2.901144773256e-12       0.000000000000e+00       1.057963371011e-11       1.513379588538e-12      -7.317477611403e-15 
   99       3.545905692291e-10       1.007890232110e-13      -2.988953357907e-12       0.000000000000e+00       1.030477639977e-11       1.481840568407e-12      -7.219718000036e-15 
  100       3.587198149548e-10       1.027665554422e-13      -3.076948310070e-12       0.000000000000e+00       1.003968582825e-11       1.451342002804e-12      -7.118834216465e-15 
  101       3.628763920445e-10       1.047252179060e-13      -3.165058617262e-12       0.000000000000e+00       9.783781291235e-12       1.421826646857e-12      -7.017746778759e-15 
  102       3.670592581981e-10       1.066629899954e-13      -3.253211855655e-12       0.000000000000e+00       9.536361931028e-12       1.393224131543e-12      -6.919600321878e-15 
  103       3.712671614377e-10       1.085778242549e-13      -3.341334201130e-12       0.000000000000e+00       9.296602993239e-12       1.365450547359e-12      -6.827768934912e-15 
  104       3.754989067047e-10       1.104677005907e-13      -3.429351801430e-12       0.000000000000e+00       9.063742867712e-12       1.338427661635e-12      -6.745123587863e-15 
  105       3.797542123191e-10       1.123307963991e-13      -3.517195079923e-12       0.000000000000e+00       8.837681049214e-12       1.312144423706e-12      -6.671710212847e-15 
  106       3.840329562040e-10       1.141653402558e-13      -3.604795036517e-12       0.000000000000e+00       8.618454350026e-12       1.286603030711e-12      -6.606766455474e-15 
  107       3.883349081452e-10       1.159695611206e-13      -3.692081964168e-12       0.000000000000e+00       8.406051702041e-12       1.261799837720e-12      -6.549428837901e-15 
