# dimensionless total lensed [l(l+1)/2pi] C_l's
# for l=2 to 6000, i.e. number of multipoles equal to 5999
#
# -> if you prefer output in CAMB/HealPix/LensPix units/order, set 'format' to 'camb' in input file
# -> if you don't want to see such a header, set 'headers' to 'no' in input file
# -> for CMB lensing (phi), these are C_l^phi-phi for the lensing potential.
#    Remember the conversion factors:
#    C_l^dd (deflection) = l(l+1) C_l^phi-phi
#    C_l^gg (shear/convergence) = 1/4 (l(l+1))^2 C_l^phi-phi
#
# 1:l     2:TT                     3:EE                     4:TE                     5:BB                     6:phiphi                 7:TPhi                   8:Ephi               
    2       1.372503077793e-10       4.281366164226e-15       3.615923106634e-13       2.426693794624e-19       8.162995787875e-09       4.457198446525e-10      -1.853175257611e-12 
    3       1.299010881430e-10       5.732026941191e-15       4.147056770413e-13       4.854637696789e-19       5.046253364120e-09       3.162411607785e-10      -1.423220306277e-12 
    4       1.228755612965e-10       5.342121553177e-15       3.975389814179e-13       8.093803746685e-19       3.509078756004e-09       2.395295658821e-10      -9.685469421421e-13 
    5       1.175407319557e-10       3.989491878144e-15       3.486828255159e-13       1.214575691839e-18       2.616780456215e-09       1.892713897938e-10      -5.928294342521e-13 
    6       1.138067419651e-10       2.561041598590e-15       2.904074678029e-13       1.701236913715e-18       2.042526395896e-09       1.541154500061e-10      -3.175315823742e-13 
    7       1.113365542262e-10       1.510880601367e-15       2.359952160741e-13       2.269576799534e-18       1.647597488542e-09       1.283963950872e-10      -1.365372123165e-13 
    8       1.098234839280e-10       8.967009018862e-16       1.916893514789e-13       2.919827985601e-18       1.361846428429e-09       1.089060064504e-10      -3.111941352584e-14 
    9       1.090292931851e-10       5.938823874592e-16       1.594666021469e-13       3.652236955133e-18       1.146994951990e-09       9.370322543246e-11       2.081141367851e-14 
   10       1.087657820505e-10       4.592686129048e-16       1.388001852305e-13       4.467057899942e-18       9.807312856624e-10       8.158352382339e-11       3.936699134243e-14 
   11       1.089345888442e-10       3.975414847234e-16       1.278502752454e-13       5.364546708265e-18       8.247208152035e-10       7.203665589492e-11       4.010917561466e-14 
   12       1.094463001371e-10       3.637763578489e-16       1.242115307969e-13       6.344955305313e-18       7.204778336605e-10       6.375894439016e-11       3.282116971646e-14 
   13       1.102170178454e-10       3.441770397691e-16       1.255801795077e-13       7.408526556009e-18       6.349275911628e-10       5.696976473205e-11       2.348553214268e-14 
   14       1.111661840424e-10       3.382428048560e-16       1.301361567687e-13       8.555489913613e-18       5.637642967684e-10       5.104551218468e-11       1.416460731939e-14 
   15       1.123094275361e-10       3.486587674109e-16       1.366526004309e-13       9.786057964577e-18       5.038780410078e-10       4.608094720112e-11       6.210536990666e-15 
   16       1.136236525463e-10       3.774277292491e-16       1.442551735821e-13       1.110042398047e-17       4.529708954968e-10       4.186386939184e-11      -1.646634480776e-16 
   17       1.150347398265e-10       4.253492599168e-16       1.524479417377e-13       1.249876054373e-17       4.093102566463e-10       3.821990247251e-11      -4.912530299140e-15 
   18       1.165415214268e-10       4.922278098832e-16       1.610712797257e-13       1.398121874359e-17       3.714208374924e-10       3.498548884781e-11      -8.127951318992e-15 
   19       1.181561632634e-10       5.779277428761e-16       1.700062355381e-13       1.554793158107e-17       3.387015672509e-10       3.213713306391e-11      -9.919864342816e-15 
   20       1.198338661910e-10       6.817373984336e-16       1.790596501414e-13       1.719901002865e-17       3.098878589119e-10       2.962958516818e-11      -1.053943056828e-14 
   21       1.215861172451e-10       8.038649095029e-16       1.880928518376e-13       1.893455333360e-17       2.845261202969e-10       2.742131859651e-11      -1.032760910983e-14 
   22       1.234099401440e-10       9.445892750766e-16       1.969583402212e-13       2.075464437300e-17       2.620091880247e-10       2.543488042515e-11      -9.735246935501e-15 
   23       1.252961585687e-10       1.104606954801e-15       2.055527982193e-13       2.265936183665e-17       2.420268874843e-10       2.363897072315e-11      -9.073109709651e-15 
   24       1.272165388056e-10       1.284645610735e-15       2.137769519218e-13       2.464877554489e-17       2.241164884210e-10       2.199998097769e-11      -8.591822321195e-15 
   25       1.291891108267e-10       1.485609153584e-15       2.215643074411e-13       2.672296046705e-17       2.080668963460e-10       2.052506439214e-11      -8.242190741378e-15 
   26       1.312269406304e-10       1.708399464387e-15       2.288454891698e-13       2.888199117556e-17       1.935872355521e-10       1.921543885722e-11      -7.876613404185e-15 
   27       1.333110691935e-10       1.953976117445e-15       2.355196882283e-13       3.112595385430e-17       1.805035657573e-10       1.803970954739e-11      -7.455919987082e-15 
   28       1.354057386155e-10       2.223255439572e-15       2.414755742310e-13       3.345494246082e-17       1.685900687737e-10       1.695043837988e-11      -6.986125511690e-15 
   29       1.375202146457e-10       2.517075520424e-15       2.466490770423e-13       3.586907182024e-17       1.577857304270e-10       1.594452435898e-11      -6.540026070790e-15 
   30       1.396684749128e-10       2.836175727271e-15       2.509897092469e-13       3.836846962361e-17       1.479743089875e-10       1.502520806301e-11      -6.226877089490e-15 
   31       1.418543508102e-10       3.181291062753e-15       2.544399723559e-13       4.095327550714e-17       1.389553935927e-10       1.418748075332e-11      -6.143319945785e-15 
   32       1.440801961041e-10       3.553525385646e-15       2.569124610504e-13       4.362364798276e-17       1.306823369296e-10       1.342358948200e-11      -6.243172730872e-15 
   33       1.463388049577e-10       3.954117363070e-15       2.583026722835e-13       4.637976268674e-17       1.230966030284e-10       1.271787104493e-11      -6.415978242680e-15 
   34       1.486169088378e-10       4.384252535750e-15       2.585102195332e-13       4.922180900984e-17       1.160919798022e-10       1.205113740049e-11      -6.547694769799e-15 
   35       1.509203463169e-10       4.844737936282e-15       2.574955924285e-13       5.214997913511e-17       1.096325735782e-10       1.142424159875e-11      -6.623682238052e-15 
   36       1.532560852954e-10       5.336205593152e-15       2.552435495400e-13       5.516447739610e-17       1.036665059482e-10       1.084197236391e-11      -6.661108773205e-15 
   37       1.556259577970e-10       5.859248257085e-15       2.517405790566e-13       5.826551353739e-17       9.811606038934e-11       1.030635299163e-11      -6.679120597110e-15 
   38       1.580305286875e-10       6.414615264748e-15       2.469468579333e-13       6.145326546344e-17       9.296687417570e-11       9.815938371726e-12      -6.688299635136e-15 
   39       1.604653195950e-10       7.003074858696e-15       2.408152393673e-13       6.472790523921e-17       8.820259344941e-11       9.365775858422e-12      -6.698046855011e-15 
   40       1.629189232926e-10       7.625358988496e-15       2.332986107614e-13       6.808960944950e-17       8.377774330659e-11       8.947201979512e-12      -6.719532797994e-15 
   41       1.653783949008e-10       8.282182126188e-15       2.243503147429e-13       7.153854308170e-17       7.963356875385e-11       8.550521302808e-12      -6.762411977212e-15 
   42       1.678491316069e-10       8.974310254737e-15       2.139258589355e-13       7.507480415745e-17       7.575786589346e-11       8.174826609250e-12      -6.823442784904e-15 
   43       1.703403474364e-10       9.702510713928e-15       2.019815654129e-13       7.869846157134e-17       7.214035234662e-11       7.820861065270e-12      -6.894328866126e-15 
   44       1.728593340646e-10       1.046753247187e-14       1.884740016707e-13       8.240956912713e-17       6.875471396707e-11       7.488210983433e-12      -6.964651879787e-15 
   45       1.754109874017e-10       1.127004478346e-14       1.733642631792e-13       8.620815341226e-17       6.556800474054e-11       7.175705715719e-12      -7.024753285757e-15 
   46       1.779968029993e-10       1.211043303386e-14       1.566325335393e-13       9.009417508923e-17       6.257520520598e-11       6.882996537588e-12      -7.075722628759e-15 
   47       1.806151584434e-10       1.298894060666e-14       1.382677431625e-13       9.406755459484e-17       5.977282460626e-11       6.609278969864e-12      -7.122167579255e-15 
   48       1.832612584775e-10       1.390572007221e-14       1.182637536802e-13       9.812818096062e-17       5.714847735869e-11       6.352763696909e-12      -7.169496220850e-15 
   49       1.859268740156e-10       1.486082896036e-14       9.661953029864e-14       1.022759103184e-16       5.468022160972e-11       6.110604960299e-12      -7.223956821677e-15 
   50       1.886036174280e-10       1.585428820016e-14       7.333260644826e-14       1.065105708336e-16       5.234316713624e-11       5.879725862468e-12      -7.291172094119e-15 
   51       1.912944219778e-10       1.688628594686e-14       4.837698655397e-14       1.108319825521e-16       5.013294813081e-11       5.659724501467e-12      -7.371180667477e-15 
   52       1.940047272164e-10       1.795702177440e-14       2.171954314821e-14       1.152399403574e-16       4.804747848997e-11       5.450632897716e-12      -7.462118426383e-15 
   53       1.967391227182e-10       1.906664759622e-14      -6.673939557853e-15       1.197342068495e-16       4.607992755271e-11       5.252060327670e-12      -7.561576047689e-15 
   54       1.995012535064e-10       2.021526638704e-14      -3.683890897590e-14       1.243145111536e-16       4.421840074212e-11       5.063163925022e-12      -7.666567924242e-15 
   55       2.022937511557e-10       2.140291374864e-14      -6.880554567641e-14       1.289805801170e-16       4.244956882344e-11       4.882954246106e-12      -7.773805230794e-15 
   56       2.051182237164e-10       2.262950017252e-14      -1.025770492439e-13       1.337322437080e-16       4.077134308319e-11       4.711368207797e-12      -7.880665751889e-15 
   57       2.079750976332e-10       2.389485219523e-14      -1.381462091659e-13       1.385693537127e-16       3.918278955544e-11       4.548411196122e-12      -7.984410547600e-15 
   58       2.108635003131e-10       2.519872639342e-14      -1.755014610305e-13       1.434917537082e-16       3.768029436916e-11       4.393829462332e-12      -8.081882111803e-15 
   59       2.137811665520e-10       2.654080743731e-14      -2.146267710582e-13       1.484992791322e-16       3.625739823213e-11       4.247093774662e-12      -8.169485145654e-15 
   60       2.167243449607e-10       2.792070614402e-14      -2.555015206331e-13       1.535917573533e-16       3.490463091474e-11       4.107383070090e-12      -8.243167331057e-15 
   61       2.196893018529e-10       2.933796924715e-14      -2.981055902315e-13       1.587690452350e-16       3.361214118895e-11       3.973822712105e-12      -8.299448675183e-15 
   62       2.226774390620e-10       3.079211567159e-14      -3.424362059226e-13       1.640311515241e-16       3.237865091166e-11       3.846298742398e-12      -8.338823032117e-15 
   63       2.256911640528e-10       3.228260498376e-14      -3.884946865534e-13       1.693781421826e-16       3.120422621683e-11       3.724798218236e-12      -8.363089446149e-15 
   64       2.287323517907e-10       3.380882485020e-14      -4.362816265518e-13       1.748101065526e-16       3.008758411553e-11       3.609162628214e-12      -8.374384719799e-15 
   65       2.318023018543e-10       3.537008946278e-14      -4.857969454300e-13       1.803271586159e-16       2.902601567746e-11       3.499079622472e-12      -8.375197457651e-15 
   66       2.349016955477e-10       3.696563796377e-14      -5.370399372900e-13       1.859294382534e-16       2.801530921243e-11       3.394074742914e-12      -8.368382110195e-15 
   67       2.380305530138e-10       3.859463287097e-14      -5.900093203268e-13       1.916171125048e-16       2.704967345193e-11       3.293503153419e-12      -8.357173017657e-15 
   68       2.411886894394e-10       4.025618859411e-14      -6.446996470890e-13       1.973903638793e-16       2.612328442470e-11       3.196723322789e-12      -8.344478271434e-15 
   69       2.443772868805e-10       4.194946721379e-14      -7.010895799559e-13       2.032493497205e-16       2.523546176627e-11       3.103677425557e-12      -8.330563756039e-15 
   70       2.475975653488e-10       4.367359936988e-14      -7.591513179794e-13       2.091942368326e-16       2.438640808511e-11       3.014414229813e-12      -8.314922905900e-15 
   71       2.508502823165e-10       4.542765509658e-14      -8.188539831387e-13       2.152252146131e-16       2.357564341177e-11       2.928913998635e-12      -8.296951069904e-15 
   72       2.541357025937e-10       4.721064301717e-14      -8.801635767687e-13       2.213424959809e-16       2.280196990713e-11       2.847084873834e-12      -8.275941136236e-15 
   73       2.574535682051e-10       4.902150953875e-14      -9.430429359893e-13       2.275463183051e-16       2.206343657064e-11       2.768759259684e-12      -8.251079157235e-15 
   74       2.608030682676e-10       5.085913804693e-14      -1.007451690135e-12       2.338369443332e-16       2.135730394849e-11       2.693690206664e-12      -8.221439974242e-15 
   75       2.641828088677e-10       5.272234810058e-14      -1.073346217182e-12       2.402146631198e-16       2.068000884183e-11       2.621547795194e-12      -8.185982842446e-15 
   76       2.675914181074e-10       5.460989461200e-14      -1.140682302469e-12       2.466797420485e-16       2.002804897099e-11       2.552002981440e-12      -8.144022207484e-15 
   77       2.710295552093e-10       5.652046699494e-14      -1.209423770889e-12       2.532322707455e-16       1.940090122648e-11       2.485004780304e-12      -8.096748817481e-15 
   78       2.744982147571e-10       5.845268839751e-14      -1.279535356970e-12       2.598722902572e-16       1.879857392948e-11       2.420547292906e-12      -8.045979333077e-15 
   79       2.779981072065e-10       6.040511491035e-14      -1.350980153888e-12       2.665998393590e-16       1.822071792402e-11       2.358584935329e-12      -7.993711064720e-15 
   80       2.815296417876e-10       6.237623476107e-14      -1.423719625304e-12       2.734149544800e-16       1.766661014972e-11       2.299030615839e-12      -7.942127340888e-15 
   81       2.850929094063e-10       6.436446750871e-14      -1.497713617207e-12       2.803176696295e-16       1.713513721436e-11       2.241753912105e-12      -7.893602876308e-15 
   82       2.886876655464e-10       6.636816323810e-14      -1.572920369757e-12       2.873080163218e-16       1.662477896661e-11       2.186579248412e-12      -7.850709140177e-15 
   83       2.923133131716e-10       6.838560175437e-14      -1.649296529127e-12       2.943860235021e-16       1.613359206865e-11       2.133284072884e-12      -7.816219724385e-15 
   84       2.959692336598e-10       7.041503942353e-14      -1.726796796469e-12       3.015517362515e-16       1.565968243782e-11       2.081654326547e-12      -7.792297148249e-15 
   85       2.996558800945e-10       7.245486038098e-14      -1.805372782028e-12       3.088052756259e-16       1.520274854425e-11       2.031665408824e-12      -7.777886619431e-15 
   86       3.033738347123e-10       7.450344902977e-14      -1.884973981896e-12       3.161467886467e-16       1.476276503010e-11       1.983328009788e-12      -7.770898047302e-15 
   87       3.071234659016e-10       7.655914461840e-14      -1.965548129649e-12       3.235764306414e-16       1.433950849822e-11       1.936632638468e-12      -7.768977925925e-15 
   88       3.109049169543e-10       7.862024123603e-14      -2.047041202089e-12       3.310943654846e-16       1.393254930109e-11       1.891548762951e-12      -7.769500944912e-15 
   89       3.147180948165e-10       8.068498780769e-14      -2.129397424993e-12       3.387007658393e-16       1.354124332974e-11       1.848023950488e-12      -7.769561600270e-15 
   90       3.185626588399e-10       8.275158808947e-14      -2.212559278849e-12       3.463958133984e-16       1.316472380270e-11       1.805983007604e-12      -7.765965805257e-15 
   91       3.224380095327e-10       8.481820066375e-14      -2.296467504603e-12       3.541796991252e-16       1.280189305497e-11       1.765327120202e-12      -7.755222501229e-15 
   92       3.263432773112e-10       8.688293893436e-14      -2.381061109402e-12       3.620526234955e-16       1.245141432695e-11       1.725932993669e-12      -7.733535268496e-15 
   93       3.302776058180e-10       8.894390234158e-14      -2.466278079270e-12       3.700148536744e-16       1.211202903632e-11       1.687684132134e-12      -7.697729016516e-15 
   94       3.342410750536e-10       9.099927538775e-14      -2.552057627279e-12       3.780669043635e-16       1.178358101296e-11       1.650571925331e-12      -7.648207706665e-15 
   95       3.382338969317e-10       9.304724356552e-14      -2.638338295696e-12       3.862093847259e-16       1.146613184439e-11       1.614608246096e-12      -7.586428030361e-15 
   96       3.422561259745e-10       9.508596388322e-14      -2.725057294416e-12       3.944429448823e-16       1.115964542550e-11       1.579794252755e-12      -7.514008352929e-15 
   97       3.463076521067e-10       9.711356528864e-14      -2.812150516407e-12       4.027682769337e-16       1.086398421536e-11       1.546119970407e-12      -7.432733160138e-15 
   98       3.503881934506e-10       9.912814909272e-14      -2.899552553158e-12       4.111861159844e-16       1.057890549402e-11       1.513563872198e-12      -7.344557504728e-15 
   99       3.544972891206e-10       1.011277893934e-13      -2.987196710127e-12       4.196972411647e-16       1.030405761925e-11       1.482092460592e-12      -7.251611452946e-15 
  100       3.586342920176e-10       1.031105334991e-13      -3.075015022185e-12       4.283024766533e-16       1.003897628343e-11       1.451659848652e-12      -7.156204531075e-15 
  101       3.627983616242e-10       1.050744023531e-13      -3.162938269065e-12       4.370026927005e-16       9.783080770272e-12       1.422207341310e-12      -7.060830171967e-15 
  102       3.669884567988e-10       1.070173909564e-13      -3.250895990812e-12       4.457988066510e-16       9.535670211631e-12       1.393663016648e-12      -6.968170161577e-15 
  103       3.712033285703e-10       1.089374687922e-13      -3.338816503223e-12       4.546917839661e-16       9.295919844328e-12       1.365941307168e-12      -6.881099085494e-15 
  104       3.754417841783e-10       1.108326320236e-13      -3.426627830894e-12       4.636825542077e-16       9.063068051801e-12       1.338962642067e-12      -6.802056204680e-15 
  105       3.797035353321e-10       1.127010672048e-13      -3.514260616621e-12       4.727717438597e-16       8.837014327077e-12       1.312716297812e-12      -6.731054871048e-15 
  106       3.839884516399e-10       1.145410105779e-13      -3.601645635642e-12       4.819599091527e-16       8.617795483522e-12       1.287205296659e-12      -6.667411250749e-15 
  107       3.882962954219e-10       1.163506992541e-13      -3.688712938361e-12       4.912476179687e-16       8.405400456347e-12       1.262426907944e-12      -6.610350408089e-15 
